Program Time [s],data 0,data 1,data 2
3.83416,-509,125,-236
3.91283,-508,124,-236
3.99181,-510,123,-236
4.07082,-509,123,-236
4.1498,-509,123,-236
4.22881,-509,124,-237
4.30779,-510,124,-236
4.38681,-509,123,-236
4.46579,-508,125,-237
4.5448,-509,124,-237
4.62379,-510,124,-236
4.70279,-509,123,-234
4.78177,-508,124,-235
4.86078,-510,122,-238
4.93978,-506,120,-243
5.01878,-503,113,-251
5.09779,-495,114,-267
5.17691,-480,107,-294
5.2558,-465,104,-319
5.33479,-453,104,-328
5.41378,-444,105,-339
5.49278,-425,100,-361
5.57177,-407,101,-376
5.65077,-385,98,-391
5.72978,-370,99,-400
5.80878,-349,97,-412
5.88775,-328,96,-421
5.96675,-305,96,-429
6.04575,-276,99,-438
6.12473,-239,95,-446
6.20373,-202,92,-451
6.28274,-160,82,-455
6.36173,-114,75,-454
6.44074,-71,68,-449
6.51971,-29,65,-441
6.59871,5,64,-430
6.67771,41,58,-419
6.75665,82,53,-402
6.83562,125,50,-382
6.91464,176,49,-354
6.99378,209,49,-335
7.07299,249,53,-304
7.15156,275,56,-283
7.23054,303,57,-256
7.30956,334,57,-226
7.38848,350,62,-207
7.46746,369,63,-184
7.54646,380,64,-169
7.62543,394,69,-149
7.70442,406,67,-130
7.78342,419,72,-107
7.86241,436,76,-77
7.94139,448,82,-53
8.02036,463,83,-22
8.09935,464,88,-12
8.17829,467,97,1
8.25727,479,115,51
8.33624,481,134,99
8.4152,481,134,111
8.4942,487,134,134
8.57325,488,131,155
8.65219,489,130,176
8.73118,483,143,212
8.81018,482,137,244
8.88918,469,139,292
8.96818,452,144,328
9.04719,435,151,360
9.1262,421,146,387
9.2052,381,162,420
9.28419,343,170,449
9.36319,312,161,474
9.44219,281,145,498
9.52119,259,127,511
9.60019,212,106,531
9.67918,153,100,542
9.7582,81,77,547
9.83721,2,70,537
9.91622,-50,65,526
9.99522,-83,70,513
10.0742,-135,75,495
10.1532,-186,73,468
10.2322,-239,83,433
10.3112,-256,100,419
10.3902,-274,132,399
10.4692,-257,162,401
10.5482,-285,162,378
10.6272,-310,167,356
10.7062,-343,158,326
10.7852,-372,168,288
10.8642,-386,175,269
10.9432,-397,180,254
11.0222,-405,168,247
11.1012,-438,154,197
11.1802,-452,162,165
11.2592,-489,145,82
11.3382,-503,142,41
11.4172,-516,126,-13
11.4963,-529,93,-68
11.5752,-532,49,-129
11.6542,-523,37,-176
11.7332,-509,23,-220
11.8122,-507,6,-227
11.8912,-503,-11,-240
11.9703,-499,-15,-245
12.0492,-493,-11,-255
12.1283,-490,-25,-262
12.2073,-491,-34,-259
12.2863,-488,-32,-260
12.3652,-492,-46,-248
12.4443,-493,-65,-242
12.5233,-498,-88,-220
12.6023,-496,-108,-215
12.6813,-492,-128,-211
12.7603,-485,-167,-203
12.8393,-469,-201,-210
12.9183,-444,-242,-217
12.9973,-413,-300,-208
13.0763,-386,-358,-151
13.1557,-292,-450,16
13.2343,-259,-471,-8
13.3133,-234,-483,-44
13.3923,-232,-467,-127
13.4715,-192,-466,-167
13.5504,-134,-483,-157
13.6294,-69,-500,-137
13.7087,-1,-506,-118
13.7874,39,-497,-122
13.8664,68,-493,-113
13.9454,91,-495,-98
14.0244,129,-485,-89
14.1034,171,-465,-87
14.1824,208,-447,-78
14.2614,260,-421,-62
14.3404,310,-382,-51
14.4194,342,-337,-60
14.4984,377,-286,-60
14.5774,422,-196,-52
14.6564,438,-130,-55
14.7354,447,-65,-54
14.8144,459,-37,-28
14.8934,461,-38,-18
14.9724,455,-22,-37
15.0515,436,-14,-72
15.1304,433,6,-76
15.2095,444,65,-37
15.2884,405,100,-91
15.3674,351,175,-123
15.4464,285,210,-172
15.5253,223,229,-211
15.6043,200,262,-202
15.6834,163,312,-177
15.7623,95,349,-175
15.8413,56,371,-164
15.9203,-11,383,-171
15.9993,-31,391,-167
16.0783,-53,398,-161
16.1573,-90,395,-167
16.2363,-134,388,-165
16.3153,-202,366,-164
16.3943,-244,336,-191
16.4733,-280,318,-191
16.5523,-305,301,-190
16.6313,-320,277,-213
16.7104,-332,253,-234
16.7892,-376,217,-221
16.8682,-387,207,-215
16.9472,-396,219,-191
17.0263,-364,263,-178
17.1053,-364,250,-199
17.1842,-388,228,-194
17.2633,-414,201,-189
17.3423,-443,167,-170
17.4213,-465,113,-178
17.5002,-457,115,-201
17.5792,-466,85,-206
17.6583,-475,42,-213
17.7372,-470,31,-221
17.8162,-480,35,-197
17.8953,-476,-47,-228
17.9742,-447,-76,-276
18.0532,-446,-122,-261
18.1323,-427,-202,-249
18.2113,-350,-308,-254
18.2903,-259,-383,-248
18.3693,-159,-448,-204
18.4483,-50,-488,-146
18.5273,39,-493,-111
18.6063,47,-480,-132
18.6853,155,-458,-100
18.7643,251,-409,-81
18.8433,320,-350,-67
18.9223,383,-275,-42
19.0013,443,-155,-10
19.0803,459,-69,-2
19.1592,435,24,-58
19.2382,429,79,-49
19.3172,435,119,-12
19.3962,422,196,40
19.4752,324,330,51
19.5542,262,358,-12
19.6332,215,345,-104
19.7122,131,385,-118
19.7913,80,390,-120
19.8702,36,409,-122
19.9492,-4,423,-114
20.0282,-26,435,-92
20.1072,-45,441,-68
20.1862,-61,440,-71
20.2652,-98,427,-101
20.3442,-192,399,-108
20.4232,-230,364,-165
20.5022,-284,325,-183
20.5812,-332,285,-195
20.6602,-386,225,-209
20.7393,-437,145,-201
20.8182,-448,102,-218
20.8972,-461,80,-209
20.9762,-480,57,-175
21.0552,-478,52,-179
21.1342,-486,50,-164
21.2132,-486,54,-166
21.2925,-484,44,-183
21.3712,-480,12,-201
21.4502,-469,32,-218
21.5292,-462,28,-231
21.6082,-459,22,-248
21.6872,-461,-52,-255
21.7662,-471,-100,-226
21.8453,-467,-108,-232
21.9242,-459,-123,-236
22.0032,-460,-138,-230
22.0823,-455,-166,-222
22.1612,-452,-200,-205
22.2403,-443,-221,-198
22.3194,-430,-251,-192
22.3983,-425,-266,-189
22.4773,-440,-274,-134
22.5563,-452,-243,-136
22.6353,-460,-230,-125
22.7143,-463,-227,-137
22.7933,-472,-202,-138
22.8722,-452,-242,-158
22.9512,-418,-319,-94
23.0302,-364,-388,-54
23.1093,-354,-392,25
23.1882,-355,-372,78
23.2672,-384,-316,114
23.3462,-382,-278,168
23.4252,-400,-219,187
23.5042,-382,-216,214
23.5832,-402,-172,208
23.6622,-417,-129,203
23.7412,-427,-76,198
23.8202,-421,-37,208
23.8992,-414,16,222
23.9782,-430,51,185
24.0572,-436,82,163
24.1362,-413,92,166
24.2152,-453,143,48
24.2942,-457,177,-71
24.3732,-449,153,-74
24.4522,-453,146,-66
24.5312,-474,152,-58
24.6102,-486,118,-94
24.6892,-488,95,-113
24.7682,-491,79,-119
24.8472,-483,97,-146
24.9262,-477,110,-157
25.0052,-471,111,-168
25.0842,-475,103,-169
25.1632,-482,77,-170
25.2422,-487,42,-180
25.3215,-492,-6,-186
25.4003,-491,-42,-186
25.4792,-500,-71,-160
25.5582,-501,-99,-130
25.6373,-497,-133,-119
25.7163,-485,-178,-117
25.7953,-476,-208,-102
25.8743,-472,-219,-91
25.9535,-472,-223,-86
26.0323,-465,-239,-89
26.1113,-467,-235,-59
26.1903,-460,-238,3
26.2693,-446,-252,37
26.3483,-426,-261,90
26.4273,-424,-246,116
26.5063,-414,-227,155
26.5853,-422,-202,159
26.6643,-441,-231,95
26.7433,-439,-250,81
26.8223,-430,-207,149
26.9013,-437,-202,134
26.9803,-443,-204,123
27.0593,-446,-191,114
27.1383,-454,-183,104
27.2173,-470,-189,47
27.2962,-483,-169,12
27.3752,-499,-136,-70
27.4542,-479,-98,-209
27.5333,-375,-57,-348
27.6123,-350,-7,-364
27.6915,-275,45,-391
27.7703,-213,111,-387
27.8493,-238,164,-356
27.9282,-350,149,-304
28.0072,-347,60,-345
28.0862,-410,50,-296
28.1652,-312,53,-380
28.2442,-396,52,-324
28.3232,-431,2,-299
28.4022,-448,-76,-278
28.4812,-435,-120,-289
28.5602,-410,-153,-308
28.6392,-367,-205,-326
28.7182,-346,-251,-316
28.7973,-322,-278,-318
28.8763,-301,-322,-295
28.9553,-278,-373,-254
29.0343,-246,-429,-192
29.1133,-188,-476,-132
29.1923,-92,-524,-62
29.2715,-17,-510,-91
29.3503,80,-481,-150
29.4293,168,-456,-127
29.5083,119,-411,-213
29.5875,79,-355,-282
29.6663,88,-355,-277
29.7453,114,-293,-308
29.8243,43,-170,-382
29.9033,5,-102,-400
29.9823,-146,107,-394
30.0613,-55,299,-293
30.1403,17,390,-184
30.2192,62,363,-196
30.2982,85,325,-221
30.3776,102,311,-224
30.4562,126,344,-176
30.5352,134,378,-115
30.6142,136,406,-57
30.6932,106,431,-11
30.7722,43,445,-3
30.8516,9,439,-48
30.9302,-4,419,-109
31.0092,9,377,-179
31.0882,-14,399,-142
31.1672,-112,433,-41
31.2462,-251,387,-21
31.3252,-383,276,-53
31.4042,-435,197,-7
31.4832,-440,175,-61
31.5623,-435,147,-120
31.6413,-429,103,-162
31.7204,-421,21,-209
31.7992,-351,19,-289
31.8782,-305,81,-310
31.9576,-295,182,-289
32.0362,-199,290,-252
32.1152,-215,330,-198
32.1942,-253,311,-188
32.2732,-288,267,-207
32.3522,-296,219,-233
32.4312,-304,166,-261
32.5102,-282,124,-294
32.5892,-209,127,-324
32.6682,-94,124,-338
32.7472,24,137,-315
32.8262,61,183,-278
32.9055,-41,204,-294
32.9842,-90,195,-302
33.0632,-94,234,-281
33.1422,-58,294,-236
33.2212,-89,299,-239
33.3002,-55,304,-238
33.3793,-15,323,-218
33.4582,124,328,-161
33.5377,233,274,-136
33.6162,269,190,-174
33.6952,295,142,-178
33.7742,295,160,-161
33.8536,310,187,-115
33.9322,369,212,34
34.0112,300,283,269
34.0902,269,322,198
34.1692,268,330,196
34.2482,251,326,240
34.3272,251,308,279
34.4062,284,229,356
34.4857,315,171,382
34.5642,320,73,428
34.6432,363,-4,408
34.7222,369,-167,363
34.8015,317,-312,288
34.8802,179,-428,215
34.9592,-43,-468,141
35.0382,-191,-426,110
35.1181,-368,-285,35
35.1962,-449,-112,-58
35.2752,-455,12,-72
35.3542,-444,74,-82
35.4333,-402,191,-44
35.5122,-362,247,44
35.5912,-371,241,35
35.6702,-332,282,84
35.7492,-264,362,6
35.8282,-269,360,35
35.9072,-318,301,93
35.9862,-165,407,96
36.0652,-51,441,82
36.1442,-73,432,-33
36.2232,-120,396,-123
36.3022,-295,318,-147
36.3812,-380,268,-89
36.4603,-292,353,-48
36.5393,-187,410,-35
36.6182,-230,375,-99
36.6972,-347,271,-157
36.7767,-432,146,-123
36.8552,-460,29,-42
36.9342,-453,53,-6
37.0132,-349,211,159
37.0923,-230,326,193
37.1712,-108,379,208
37.2502,-32,394,234
37.3292,31,417,206
37.4083,-77,421,160
37.4872,-335,301,89
37.5662,-430,158,82
37.6452,-383,129,198
37.7243,-260,193,299
37.8032,-16,271,372
37.8822,9,289,373
37.9614,-15,297,358
38.0405,-33,271,374
38.1192,-39,236,394
38.1982,-52,229,396
38.2779,-10,222,412
38.3562,8,243,400
38.4352,159,272,374
38.5142,149,247,396
38.5933,284,236,322
38.6723,360,186,41
38.7512,132,178,-246
38.8302,-213,229,-264
38.9093,-313,305,-67
38.9882,-261,353,23
39.0673,-310,305,102
39.1462,-371,180,183
39.2257,-293,54,342
39.3052,-161,24,436
39.3832,60,86,487
39.4622,330,184,344
39.5413,359,223,147
39.6202,6,149,-323
39.6992,-389,154,-199
39.7782,-400,198,-126
39.8577,-360,274,31
39.9362,-230,365,108
40.0152,-46,403,211
40.0942,55,391,259
40.1736,68,374,296
40.2523,24,392,275
40.3312,-30,432,180
40.4102,-193,419,-3
40.4896,-390,264,-103
40.5683,-474,51,58
40.6472,-435,-166,105
40.7262,-433,-225,-14
40.8058,-470,15,-63
40.8842,-304,301,85
40.9632,-250,306,169
41.0422,-300,200,234
41.1216,-362,199,134
41.2007,-364,242,8
41.2792,-342,276,3
41.3582,-337,286,-42
41.4375,-305,320,-34
41.5162,-208,385,60
41.5952,-122,386,197
41.6742,-153,343,250
41.7537,-235,307,225
41.8322,-286,307,163
41.9112,-291,330,119
41.9902,-263,353,122
42.0692,-216,389,105
42.1482,-219,386,136
42.2272,-353,277,132
42.3062,-440,97,110
42.3859,-421,-65,184
42.4642,-304,-229,277
42.5432,-215,-286,316
42.6222,-122,-383,292
42.7016,-17,-425,282
42.7802,58,-436,274
42.8592,231,-404,250
42.9382,365,-303,237
43.0172,446,-166,188
43.0962,453,-108,48
43.1752,337,-7,-178
43.2542,224,192,-213
43.3333,-90,297,-254
43.4122,-179,379,-105
43.4912,-112,417,62
43.5702,25,430,96
43.6492,66,425,97
43.7282,21,427,32
43.8077,-101,409,-14
43.8862,-207,375,10
43.9652,-277,330,-1
44.0442,-307,291,-74
44.1233,-273,284,-139
44.2022,-328,262,54
44.2812,-229,242,269
44.3606,-182,298,255
44.4392,-112,333,266
44.5182,-57,331,300
44.5972,-77,357,263
44.6762,-33,390,227
44.7552,39,404,201
44.8342,172,382,200
44.9132,266,345,191
44.9923,255,343,232
45.0712,174,347,298
45.1502,94,351,319
45.2292,60,364,305
45.3082,54,384,273
45.3872,-18,364,304
45.4662,-119,289,352
45.5452,-191,211,367
45.6242,-147,183,398
45.7032,16,191,438
45.7822,236,186,406
45.8617,444,75,136
45.9409,216,-14,-264
46.0193,-322,102,-265
46.0982,-290,311,-54
46.1777,-46,423,43
46.2563,119,412,126
46.3352,213,350,248
46.4142,31,327,349
46.4936,-126,322,310
46.5729,-276,342,139
46.6512,-243,387,4
46.7302,-49,432,-33
46.8096,140,417,123
46.8886,119,358,309
46.9673,37,354,324
47.0462,-77,399,220
47.1259,-114,416,148
47.2042,-7,392,249
47.2832,53,298,373
47.3622,115,223,425
47.4417,28,194,439
47.5203,-48,249,391
47.5992,-118,321,303
47.6782,-125,369,234
47.7575,-102,249,376
47.8366,-74,204,409
47.9152,-218,152,355
47.9942,-326,103,279
48.0737,-434,97,95
48.1522,-428,152,46
48.2312,-409,203,43
48.3102,-356,286,34
48.3896,-292,347,18
48.4687,-303,312,-130
48.5472,-296,268,-221
48.6262,-251,299,-220
48.706,-248,306,-219
48.7846,-260,322,-207
48.8632,-290,243,-277
48.9422,-230,204,-339
49.0216,-146,161,-376
49.1003,-131,120,-394
49.1792,-78,112,-397
49.2582,-60,111,-394
49.3374,5,99,-385
49.4162,48,80,-375
49.4952,32,51,-386
49.5742,12,39,-390
49.6537,-39,25,-398
49.7322,-31,3,-399
49.8112,-77,-51,-405
49.8903,-52,-81,-401
49.9697,-94,-84,-404
50.0483,-122,-79,-405
50.1276,-183,-68,-400
50.2063,-207,-35,-393
50.2859,-248,12,-381
50.3642,-223,63,-378
50.4433,-211,109,-365
50.5222,-311,192,-280
50.6017,-330,282,-168
50.6803,-287,347,-96
50.7593,-298,345,-76
50.8383,-320,316,-105
50.9173,-334,301,-105
50.9962,-341,301,-101
51.0752,-333,304,-121
51.1543,-315,318,-123
51.2332,-350,265,-172
51.3122,-344,139,-297
51.3912,-366,120,-294
51.4702,-308,52,-353
51.5492,-306,-51,-366
51.6282,-323,-117,-354
51.7072,-345,-109,-342
51.7863,-339,-56,-349
51.8653,-408,125,-255
51.9443,-392,194,-225
52.0233,-357,190,-261
52.1023,-327,161,-304
52.1813,-357,154,-286
52.2603,-330,44,-352
52.3393,-295,-20,-378
52.4184,-239,-52,-401
52.4973,-251,30,-399
52.5763,-306,191,-332
52.6553,-305,236,-302
52.7343,-311,204,-322
52.8133,-303,191,-336
52.8924,-277,202,-343
52.9713,-254,230,-333
53.0503,-297,250,-300
53.1293,-331,256,-276
53.2086,-326,261,-277
53.2873,-263,187,-354
53.3663,-186,47,-417
53.4453,-69,-108,-420
53.5244,100,-234,-343
53.6033,260,-300,-200
53.6823,347,-376,19
53.7615,197,-416,340
53.8404,-346,-284,272
53.9194,-442,-29,282
53.9983,-494,90,186
54.0776,-476,16,237
54.1563,-459,13,265
54.2353,-446,-15,288
54.3143,-449,-69,286
54.3937,-509,-114,183
54.4723,-540,-179,54
54.5513,-550,-176,-49
54.6303,-517,-197,-179
54.7096,-461,-232,-246
54.7883,-433,-171,-312
54.868,-443,-9,-323
54.9463,-419,33,-336
55.0259,-329,-15,-395
55.1044,-174,-129,-423
55.1834,-29,-201,-390
55.2624,146,-208,-323
55.3416,233,-192,-269
55.4209,322,-191,-188
55.4999,429,-177,-20
55.5784,463,-182,171
55.6577,437,-185,275
55.7363,422,-185,308
55.8153,369,-205,367
55.8943,291,-202,432
55.9739,238,-193,465
56.0523,175,-202,477
56.1313,126,-222,474
56.2103,120,-260,452
56.2896,207,-295,401
56.3683,340,-255,336
56.4473,433,-176,244
56.5263,410,-162,-36
56.6053,406,-64,-74
56.6843,356,95,-129
56.7633,274,251,-130
56.8422,155,389,-67
56.9212,37,448,-15
57.0002,6,463,26
57.0792,2,464,8
57.1582,20,469,38
57.2377,56,467,70
57.3162,125,451,38
57.3952,170,423,-24
57.4742,128,445,-13
57.5532,60,472,25
57.6322,61,467,4
57.7112,111,430,-74
57.7902,78,375,-184
57.8692,77,342,-216
57.9482,24,318,-256
58.0272,22,302,-272
58.1062,-28,323,-266
58.1855,-23,346,-237
58.2642,8,339,-237
58.3433,19,301,-271
58.4222,26,237,-314
58.5017,57,178,-331
58.5802,94,129,-336
58.6592,150,111,-312
58.7382,210,94,-276
58.8175,302,47,-208
58.8963,421,-6,-54
58.9752,477,-4,154
59.0542,420,72,356
59.1332,329,175,417
59.2122,322,188,413
59.2912,310,134,445
59.3702,318,99,449
59.4492,309,86,455
59.5282,320,52,451
59.6072,339,13,438
59.6862,340,-35,432
59.7652,347,-95,413
59.8442,332,-133,417
59.9232,261,-156,456
60.0022,209,-158,478
60.0812,186,-123,502
60.1609,173,-83,519
60.2392,140,-65,531
60.3182,91,-62,536
60.3973,35,-138,522
60.4765,-81,-193,487
60.5557,-261,-159,418
60.6342,-459,-44,268
60.7132,-575,22,76
60.7923,-592,73,-83
60.8712,-564,115,-176
60.9502,-537,129,-226
61.0293,-522,115,-269
61.1088,-502,112,-302
61.1873,-482,125,-313
61.2662,-439,135,-351
61.3453,-474,107,-320
61.4243,-472,102,-328
61.5032,-451,13,-373
61.5823,-372,-76,-429
61.6614,-308,-132,-451
61.7404,-234,-141,-468
61.8201,-218,-139,-470
61.8983,-217,-140,-469
61.9774,-217,-140,-471
62.0564,-213,-140,-472
62.1354,-208,-141,-470
62.2144,-207,-141,-470
62.2935,-201,-141,-473
62.3731,-200,-141,-473
62.4515,-199,-142,-472
62.5304,-194,-142,-473
62.6097,-190,-141,-473
62.6886,-191,-142,-474
62.768,-187,-142,-473
62.8465,-186,-141,-473
62.9256,-187,-141,-474
63.0045,-177,-141,-475
63.0835,-175,-141,-473
63.1626,-174,-143,-475
63.2417,-173,-141,-475
63.3207,-171,-141,-476
63.3996,-167,-141,-475
63.4787,-168,-141,-475
63.5577,-167,-141,-475
63.637,-164,-141,-476
63.7157,-164,-141,-474
63.7949,-164,-141,-475
63.8738,-164,-140,-475
63.9531,-163,-140,-475
64.0317,-159,-140,-475
64.1108,-160,-142,-476
64.1897,-160,-141,-475
64.2687,-159,-141,-475
64.3477,-159,-141,-474
64.4268,-157,-140,-475
64.5058,-157,-141,-475
64.5848,-155,-142,-476
64.6638,-156,-141,-474
64.7428,-156,-141,-476
64.8218,-157,-141,-476
64.9011,-156,-142,-475
64.9798,-154,-140,-475
65.0593,-155,-141,-474
65.1378,-153,-140,-476
65.2168,-151,-141,-476
65.2959,-152,-140,-475
65.3748,-152,-140,-476
65.4539,-153,-141,-475
65.5329,-152,-141,-475
65.6119,-152,-140,-475
65.6909,-151,-141,-476
65.7699,-152,-140,-475
65.849,-151,-141,-474
65.9279,-151,-140,-475
66.007,-152,-142,-477
66.086,-146,-141,-476
66.165,-140,-140,-475
66.244,-137,-140,-475
66.323,-137,-140,-476
66.402,-136,-139,-476
66.4811,-135,-140,-475
66.5602,-136,-140,-475
66.6392,-136,-139,-476
66.7182,-133,-140,-474
66.7972,-132,-139,-475
66.8763,-134,-140,-476
66.9553,-134,-140,-475
67.0343,-132,-140,-475
67.1133,-131,-140,-474
67.1923,-130,-140,-476
67.2715,-131,-141,-475
67.3503,-130,-140,-475
67.4293,-130,-140,-475
67.509,-128,-139,-476
67.5873,-128,-140,-476
67.6663,-128,-139,-475
67.7453,-127,-139,-474
67.8243,-129,-138,-476
67.9034,-128,-139,-476
67.9824,-127,-139,-474
68.0614,-125,-139,-474
68.1404,-125,-139,-474
68.2194,-124,-139,-475
68.2984,-125,-140,-474
68.3776,-126,-139,-475
68.4565,-126,-140,-475
68.5359,-124,-139,-475
68.6144,-102,-141,-474
68.6937,-100,-141,-473
68.7725,-99,-140,-475
68.8514,-93,-140,-473
68.9305,-81,-136,-471
69.0098,-74,-132,-472
69.0885,-77,-132,-474
69.1675,-76,-131,-473
69.2465,-75,-132,-471
69.3255,-77,-132,-472
69.4045,-76,-130,-474
69.4835,-75,-131,-473
69.5625,-75,-131,-472
69.6415,-75,-131,-473
69.7205,-77,-132,-473
69.7995,-73,-132,-473
69.8785,-75,-132,-471
69.9575,-76,-131,-473
70.0366,-76,-131,-473
70.1156,-75,-132,-471
70.1946,-75,-131,-472
70.2737,-76,-130,-472
70.3526,-75,-131,-473
70.4316,-75,-131,-471
70.5106,-75,-130,-471
70.5898,-76,-131,-473
70.6691,-76,-130,-474
70.7476,-75,-130,-472
70.8266,-75,-131,-473
70.9056,-75,-131,-473
70.9846,-76,-131,-473
71.0636,-75,-131,-472
71.1427,-75,-130,-471
71.2217,-76,-130,-472
71.3007,-75,-130,-472
71.3797,-75,-130,-471
71.4587,-75,-131,-473
71.5378,-75,-131,-473
71.6167,-75,-131,-472
71.6957,-74,-132,-472
71.7747,-75,-130,-472
71.8538,-76,-132,-473
71.9328,-75,-130,-472
72.0118,-74,-131,-471
72.0908,-74,-131,-472
72.1699,-74,-131,-473
72.2488,-74,-131,-472
72.3278,-74,-130,-471
72.4068,-74,-131,-472
72.4858,-74,-131,-473
72.5648,-74,-130,-471
72.6438,-74,-132,-471
72.7229,-74,-130,-472
72.8019,-74,-130,-472
72.8809,-74,-130,-472
72.9607,-73,-130,-471
73.0389,-73,-130,-472
73.1179,-74,-130,-472
73.1969,-74,-130,-472
73.2759,-73,-131,-472
73.3549,-74,-131,-472
73.4339,-73,-130,-472
73.513,-73,-130,-471
73.592,-75,-130,-472
73.671,-75,-131,-472
73.75,-73,-130,-472
73.8289,-73,-131,-471
73.908,-75,-130,-472
73.987,-75,-130,-472
74.066,-73,-130,-471
74.1452,-72,-130,-471
74.2243,-73,-130,-473
74.303,-75,-131,-473
74.382,-73,-130,-472
74.4611,-72,-130,-471
74.5403,-73,-131,-472
74.6192,-74,-131,-473
74.6982,-73,-131,-470
74.778,-73,-130,-471
74.8565,-73,-130,-472
